# Time(ns)	Voltage(mV)-A	Voltage(mV)-B
0.000000 62.074648
192.000000 77.089755
384.000000 92.104862
576.000000 106.143376
768.000000 127.140110
960.000000 148.197882
1152.000000 168.218024
1344.000000 192.266610
1536.000000 212.286752
1728.000000 248.359630
1920.000000 270.393994
2112.000000 294.442579
2304.000000 321.481979
2496.000000 346.507157
2688.000000 382.580035
2880.000000 413.586840
3072.000000 431.653798
3264.000000 469.679861
3456.000000 498.733482
3648.000000 523.819697
3840.000000 554.826502
4032.000000 585.894345
4224.000000 612.933744
4416.000000 641.987365
4608.000000 672.994171
4800.000000 702.047792
4992.000000 728.110599
5184.000000 753.135777
5376.000000 775.170141
5568.000000 807.214576
5760.000000 829.248939
5952.000000 845.301675
6144.000000 876.369518
6336.000000 890.346995
6528.000000 915.372173
6720.000000 930.448317
6912.000000 933.439131
7104.000000 951.445051
7296.000000 962.492752
7488.000000 984.527116
7680.000000 984.527116
7872.000000 991.546373
8064.000000 990.508744
8256.000000 1003.509629
8448.000000 1001.556444
8640.000000 1007.538072
8832.000000 998.504593
9024.000000 997.528001
9216.000000 990.508744
9408.000000 979.522080
9600.000000 977.507859
9792.000000 960.478530
9984.000000 952.482681
10176.000000 942.472610
10368.000000 917.386395
10560.000000 909.390545
10752.000000 887.356182
10944.000000 866.298410
11136.000000 847.315897
11328.000000 823.267312
11520.000000 793.237098
11712.000000 771.202734
11904.000000 747.154149
12096.000000 713.095492
12288.000000 695.028535
12480.000000 666.035951
12672.000000 630.939665
12864.000000 604.937895
13056.000000 574.846644
13248.000000 552.812281
13440.000000 520.767846
13632.000000 493.728446
13824.000000 463.698233
14016.000000 428.662984
14208.000000 394.604328
14400.000000 368.541520
14592.000000 343.516343
14784.000000 312.448500
14976.000000 290.414136
15168.000000 257.393109
15360.000000 234.321116
15552.000000 212.286752
15744.000000 181.279946
15936.000000 169.255654
16128.000000 143.192846
16320.000000 120.181890
16512.000000 104.129154
16704.000000 92.104862
16896.000000 72.084719
17088.000000 59.083834
17280.000000 46.021912
17472.000000 33.997620
17664.000000 33.021027
17856.000000 18.005921
18048.000000 18.005921
18240.000000 8.972442
18432.000000 5.005036
18624.000000 5.981628
18816.000000 10.010071
19008.000000 15.015107
19200.000000 18.982513
19392.000000 23.987548
19584.000000 33.021027
19776.000000 51.026948
19968.000000 57.069613
20160.000000 69.093905
20352.000000 91.128269
20544.000000 109.134190
20736.000000 126.163518
20928.000000 144.169439
21120.000000 171.208838
21312.000000 189.275796
21504.000000 213.324381
21696.000000 236.335337
21888.000000 262.398144
22080.000000 285.409101
22272.000000 308.481094
22464.000000 349.497971
22656.000000 371.532334
22848.000000 395.580920
23040.000000 433.668020
23232.000000 465.712455
23424.000000 491.714225
23616.000000 521.805475
23808.000000 554.826502
24000.000000 579.851680
24192.000000 607.928709
24384.000000 636.982330
24576.000000 666.035951
24768.000000 697.042756
24960.000000 725.119785
25152.000000 750.144963
25344.000000 782.189398
25536.000000 807.214576
25728.000000 832.300790
25920.000000 850.306711
26112.000000 875.331889
26304.000000 892.361217
26496.000000 903.408918
26688.000000 919.400616
26880.000000 939.420759
27072.000000 955.473495
27264.000000 961.455123
27456.000000 972.502823
27648.000000 982.512894
27840.000000 990.508744
28032.000000 998.504593
28224.000000 996.551408
28416.000000 1007.538072
28608.000000 1000.518815
28800.000000 1000.518815
28992.000000 1001.556444
29184.000000 998.504593
29376.000000 985.503708
29568.000000 975.493637
29760.000000 965.483566
29952.000000 958.464309
30144.000000 944.425794
30336.000000 932.401502
30528.000000 911.404767
30720.000000 891.384625
30912.000000 869.350261
31104.000000 852.320933
31296.000000 829.248939
31488.000000 805.200354
31680.000000 779.198584
31872.000000 747.154149
32064.000000 722.128971
32256.000000 691.061129
32448.000000 667.012543
32640.000000 640.949736
32832.000000 611.957152
33024.000000 578.875088
33216.000000 556.840724
33408.000000 530.777917
33600.000000 492.751854
33792.000000 466.689047
33984.000000 432.630390
34176.000000 400.585955
34368.000000 372.569964
34560.000000 345.530564
34752.000000 322.458571
34944.000000 290.414136
35136.000000 261.360515
35328.000000 235.358745
35520.000000 214.300974
35712.000000 188.238166
35904.000000 177.251503
36096.000000 144.169439
36288.000000 126.163518
36480.000000 108.157598
36672.000000 93.142491
36864.000000 71.108127
37056.000000 59.083834
37248.000000 43.031098
37440.000000 38.026063
37632.000000 28.015992
37824.000000 20.996735
38016.000000 18.982513
38208.000000 15.015107
